_________________________________
classic_full.csv
_________________________________

satisfaction,effort,req_1,req_2,req_3,req_4,req_5,req_6,req_7,req_8,req_9,req_10,req_11,req_12,req_13,req_14,req_15,req_16,req_17,req_18,id,productivity,scope,squandering,stcov_c1,stcov_c2,stcov_c3,stcov_c4,stcov_c5
62.0,1,1,0,0,0,0,0,0,0,0,0,0,0,0,0,0,0,0,0,1,62.0,0.05555555555555555,0.9883720930232558,0.06451612903121749,0.06557377049153454,0.07812499999938965,0.06153846153814596,0.0757575757572888
118.0,2,1,0,0,0,0,0,0,0,0,0,0,0,1,0,0,0,0,0,2,59.0,0.1111111111111111,0.9767441860465116,0.12903225806243498,0.13114754098306908,0.14062499999890138,0.12307692307629192,0.13636363636311985
174.0,3,1,0,0,0,0,0,0,1,0,0,0,0,1,0,0,0,0,0,3,58.0,0.16666666666666666,0.9651162790697675,0.19354838709365246,0.19672131147460362,0.2031249999984131,0.18461538461443788,0.1969696969689509
224.0,5,1,0,0,0,0,0,0,1,0,0,0,1,1,0,0,0,0,0,4,44.8,0.2222222222222222,0.9418604651162791,0.2258064516092612,0.26229508196613815,0.28124999999780276,0.21538461538351086,0.2575757575747819
228.0,6,1,0,0,0,0,0,0,1,1,0,0,0,1,0,0,0,0,0,5,38.0,0.2222222222222222,0.9302325581395349,0.25806451612486997,0.26229508196613815,0.2656249999979248,0.21538461538351086,0.2727272727262397
273.0,7,1,0,0,0,0,0,0,1,0,1,0,1,1,0,0,0,0,0,6,39.0,0.2777777777777778,0.9186046511627907,0.29032258064047867,0.34426229508055634,0.3437499999973145,0.26153846153712035,0.28787878787769744
278.0,8,1,0,0,0,0,0,0,1,1,0,0,1,1,0,0,0,0,0,7,34.75,0.2777777777777778,0.9069767441860465,0.29032258064047867,0.32786885245767267,0.3437499999973145,0.24615384615258384,0.3333333333320707
279.0,9,1,1,0,0,0,0,0,1,0,0,0,1,1,0,0,0,0,0,8,31.0,0.2777777777777778,0.8953488372093024,0.25806451612486997,0.32786885245767267,0.32812499999743655,0.2923076923061933,0.318181818180613
327.0,10,1,0,0,0,0,0,0,1,1,1,0,1,1,0,0,0,0,0,9,32.7,0.3333333333333333,0.8837209302325582,0.3548387096716962,0.40983606557209085,0.4062499999968262,0.2923076923061933,0.36363636363498625
328.0,11,1,1,0,0,0,0,0,1,0,1,0,1,1,0,0,0,0,0,10,29.818181818181817,0.3333333333333333,0.872093023255814,0.3225806451560874,0.40983606557209085,0.3906249999969483,0.33846153845980276,0.34848484848352845
347.0,12,1,0,1,0,0,0,0,1,0,1,0,1,1,0,0,0,0,0,11,28.916666666666668,0.3333333333333333,0.8604651162790697,0.3387096774138918,0.40983606557209085,0.42187499999670414,0.36923076922887577,0.378787878786444
352.0,13,1,0,1,0,0,0,0,1,1,0,0,1,1,0,0,0,0,0,12,27.076923076923077,0.3333333333333333,0.8488372093023255,0.3387096774138918,0.39344262294920723,0.42187499999670414,0.35384615384433926,0.42424242424081726
382.0,14,1,1,0,0,0,0,0,1,1,1,0,1,1,0,0,0,0,0,13,27.285714285714285,0.3888888888888889,0.8372093023255814,0.3870967741873049,0.4754098360636254,0.45312499999646,0.36923076922887577,0.42424242424081726
401.0,15,1,0,1,0,0,0,0,1,1,1,0,1,1,0,0,0,0,0,14,26.733333333333334,0.3888888888888889,0.8255813953488372,0.4032258064451093,0.4754098360636254,0.48437499999621586,0.3999999999979487,0.4545454545437328
402.0,16,1,1,1,0,0,0,0,1,0,1,0,1,1,0,0,0,0,0,15,25.125,0.3888888888888889,0.813953488372093,0.37096774192950055,0.4754098360636254,0.46874999999633793,0.44615384615155823,0.43939393939227506
425.0,17,1,0,1,0,0,0,1,1,1,1,0,1,1,0,0,0,0,0,16,25.0,0.4444444444444444,0.8023255813953488,0.435483870960718,0.491803278686509,0.5156249999959718,0.4307692307670217,0.48484848484664833
426.0,18,1,1,1,0,0,0,1,1,0,1,0,1,1,0,0,0,0,0,17,23.666666666666668,0.4444444444444444,0.7906976744186046,0.4032258064451093,0.491803278686509,0.4999999999960938,0.4769230769206312,0.46969696969519054
456.0,19,1,1,1,0,0,0,0,1,1,1,0,1,1,0,0,0,0,0,18,24.0,0.4444444444444444,0.7790697674418605,0.435483870960718,0.54098360655516,0.5312499999958497,0.4769230769206312,0.5151515151495638
480.0,21,1,1,1,0,0,0,1,1,1,1,0,1,1,0,0,0,0,0,19,22.857142857142858,0.5,0.7558139534883721,0.46774193547632675,0.5573770491780435,0.5624999999956055,0.5076923076897042,0.5454545454524794
491.0,23,1,1,1,0,0,0,0,1,1,1,0,1,1,0,0,1,0,0,20,21.347826086956523,0.5,0.7325581395348837,0.4516129032185224,0.5737704918009272,0.5781249999954835,0.5384615384587772,0.5454545454524794
497.0,24,1,1,1,1,0,0,0,1,1,1,0,1,1,0,0,0,0,0,21,20.708333333333332,0.5,0.7209302325581395,0.46774193547632675,0.5737704918009272,0.5781249999954835,0.5230769230742407,0.5757575757553949
515.0,25,1,1,1,0,0,0,1,1,1,1,0,1,1,0,0,1,0,0,22,20.6,0.5555555555555556,0.7093023255813954,0.48387096773413113,0.5901639344238109,0.6093749999952394,0.5692307692278501,0.5757575757553949


_________________________________
classic_weight.csv
_________________________________


satisfaction,effort,req_1,req_2,req_3,req_4,req_5,req_6,req_7,req_8,req_9,req_10,req_11,req_12,req_13,req_14,req_15,req_16,req_17,req_18,id,productivity,scope,squandering,stcov_c1,stcov_c2,stcov_c3,stcov_c4,stcov_c5,score
515.0,25,1,1,1,0,0,0,1,1,1,1,0,1,1,0,0,1,0,0,22,20.6,0.5555555555555556,0.7093023255813954,0.48387096773413113,0.5901639344238109,0.6093749999952394,0.5692307692278501,0.5757575757553949,1.0
497.0,24,1,1,1,1,0,0,0,1,1,1,0,1,1,0,0,0,0,0,21,20.708333333333332,0.5,0.7209302325581395,0.46774193547632675,0.5737704918009272,0.5781249999954835,0.5230769230742407,0.5757575757553949,0.849838969404187
491.0,23,1,1,1,0,0,0,0,1,1,1,0,1,1,0,0,1,0,0,20,21.347826086956523,0.5,0.7325581395348837,0.4516129032185224,0.5737704918009272,0.5781249999954835,0.5384615384587772,0.5454545454524794,0.8236189876076456
480.0,21,1,1,1,0,0,0,1,1,1,1,0,1,1,0,0,0,0,0,19,22.857142857142858,0.5,0.7558139534883721,0.46774193547632675,0.5573770491780435,0.5624999999956055,0.5076923076897042,0.5454545454524794,0.7767425810904072
456.0,19,1,1,1,0,0,0,0,1,1,1,0,1,1,0,0,0,0,0,18,24.0,0.4444444444444444,0.7790697674418605,0.435483870960718,0.54098360655516,0.5312499999958497,0.4769230769206312,0.5151515151495638,0.6099033816425118
426.0,18,1,1,1,0,0,0,1,1,0,1,0,1,1,0,0,0,0,0,17,23.666666666666668,0.4444444444444444,0.7906976744186046,0.4032258064451093,0.491803278686509,0.4999999999960938,0.4769230769206312,0.46969696969519054,0.5601851851851853
425.0,17,1,0,1,0,0,0,1,1,1,1,0,1,1,0,0,0,0,0,16,25.0,0.4444444444444444,0.8023255813953488,0.435483870960718,0.491803278686509,0.5156249999959718,0.4307692307670217,0.48484848484664833,0.5507246376811594
402.0,16,1,1,1,0,0,0,0,1,0,1,0,1,1,0,0,0,0,0,15,25.125,0.3888888888888889,0.813953488372093,0.37096774192950055,0.4754098360636254,0.46874999999633793,0.44615384615155823,0.43939393939227506,0.4009661835748793
401.0,15,1,0,1,0,0,0,0,1,1,1,0,1,1,0,0,0,0,0,14,26.733333333333334,0.3888888888888889,0.8255813953488372,0.4032258064451093,0.4754098360636254,0.48437499999621586,0.3999999999979487,0.4545454545437328,0.3981481481481482
382.0,14,1,1,0,0,0,0,0,1,1,1,0,1,1,0,0,0,0,0,13,27.285714285714285,0.3888888888888889,0.8372093023255814,0.3870967741873049,0.4754098360636254,0.45312499999646,0.36923076922887577,0.42424242424081726,0.36982401656314695


________________________________
classic_topsis.csv
_________________________________


satisfaction,effort,req_1,req_2,req_3,req_4,req_5,req_6,req_7,req_8,req_9,req_10,req_11,req_12,req_13,req_14,req_15,req_16,req_17,req_18,id,scope,productivity,squandering,stcov_c1,stcov_c2,stcov_c3,stcov_c4,stcov_c5,score_topsis
893.0,86,1,1,1,1,1,1,1,1,1,1,1,1,1,1,1,1,1,1,59,1.0,10.383720930232558,0.0,0.999999999983871,0.9999999999959017,0.9999999999921876,0.9999999999948719,0.9999999999962121,0.7160804980586474
873.0,82,1,1,1,1,1,1,1,1,1,1,1,1,1,1,1,1,1,0,58,0.9444444444444444,10.646341463414634,0.046511627906976744,0.9677419354682623,0.983606557373018,0.9687499999924317,0.9692307692257989,0.9848484848447544,0.7020829239864423
854.0,76,1,1,1,1,1,1,1,1,1,1,1,1,1,1,0,1,1,1,57,0.9444444444444444,11.236842105263158,0.11627906976744186,0.9354838709526535,0.9508196721272508,0.9687499999924317,0.9230769230721894,0.9848484848447544,0.6793148855085128
834.0,72,1,1,1,1,1,1,1,1,1,1,1,1,1,1,0,1,1,0,56,0.8888888888888888,11.583333333333334,0.16279069767441862,0.9032258064370448,0.9344262295043672,0.9374999999926759,0.8923076923031165,0.9696969696932967,0.6462109859481756
813.0,71,1,1,1,0,1,1,1,1,1,1,1,1,1,1,0,1,1,1,55,0.8888888888888888,11.450704225352112,0.1744186046511628,0.9032258064370448,0.9180327868814835,0.921874999992798,0.87692307691858,0.9242424242389233,0.6347548717075285
808.0,68,1,1,1,1,1,1,1,1,1,1,1,1,1,1,0,1,0,1,54,0.8888888888888888,11.882352941176471,0.20930232558139536,0.8870967741792404,0.9016393442585999,0.921874999992798,0.87692307691858,0.9242424242389233,0.613864797590607
791.0,66,1,1,1,1,1,0,1,1,1,1,1,1,1,1,0,1,1,1,52,0.8888888888888888,11.984848484848484,0.23255813953488372,0.8548387096636317,0.8688524590128326,0.8906249999930421,0.8615384615340435,0.9242424242389233,0.5949707346766558
793.0,67,1,1,1,0,1,1,1,1,1,1,1,1,1,1,0,1,1,0,53,0.8333333333333334,11.835820895522389,0.22093023255813954,0.870967741921436,0.9016393442585999,0.8906249999930421,0.846153846149507,0.9090909090874656,0.5922434746435568
788.0,64,1,1,1,1,1,1,1,1,1,1,1,1,1,1,0,1,0,0,51,0.8333333333333334,12.3125,0.2558139534883721,0.8548387096636317,0.8852459016357163,0.8906249999930421,0.846153846149507,0.9090909090874656,0.5675087577281367
771.0,62,1,1,1,1,1,0,1,1,1,1,1,1,1,1,0,1,1,0,50,0.8333333333333334,12.435483870967742,0.27906976744186046,0.822580645148023,0.8524590163899489,0.8593749999932863,0.8307692307649704,0.9090909090874656,0.5466003296138954



________________________________
classic_kmedi_sil2_eff_sat.csv
_________________________________


satisfaction,effort,req_1,req_2,req_3,req_4,req_5,req_6,req_7,req_8,req_9,req_10,req_11,req_12,req_13,req_14,req_15,req_16,req_17,req_18,id,scope,productivity,squandering,stcov_c1,stcov_c2,stcov_c3,stcov_c4,stcov_c5,cluster,cluster_str,group_label
687.0,49,1,1,1,1,1,0,1,1,1,1,0,1,1,1,0,1,1,0,40,0.7777777777777778,14.020408163265307,0.43023255813953487,0.7096774193433923,0.7704918032755308,0.7812499999938965,0.753846153842288,0.7878787878758036,0,0,Cluster 0 (n=20)
698.0,50,1,1,1,1,1,0,1,1,1,1,1,1,1,0,0,1,0,0,41,0.7222222222222222,13.96,0.4186046511627907,0.7096774193433923,0.7704918032755308,0.7968749999937745,0.7384615384577515,0.8333333333301768,0,0,Cluster 0 (n=20)
704.0,51,1,1,1,1,1,1,1,1,1,1,0,1,1,1,0,1,0,0,42,0.7777777777777778,13.803921568627452,0.4069767441860465,0.7419354838590011,0.803278688521298,0.8124999999936524,0.7692307692268245,0.7878787878758036,0,0,Cluster 0 (n=20)
707.0,53,1,1,1,1,1,0,1,1,1,1,0,1,1,1,0,1,1,1,43,0.8333333333333334,13.339622641509434,0.38372093023255816,0.7419354838590011,0.7868852458984145,0.8124999999936524,0.784615384611361,0.8030303030272613,0,0,Cluster 0 (n=20)
725.0,54,1,1,1,1,1,0,1,1,1,1,1,1,1,1,0,1,0,0,44,0.7777777777777778,13.425925925925926,0.37209302325581395,0.7741935483746099,0.803278688521298,0.8124999999936524,0.784615384611361,0.8484848484816345,0,0,Cluster 0 (n=20)
726.0,56,1,1,1,1,1,1,1,1,1,1,1,1,1,0,0,0,0,0,45,0.7222222222222222,12.964285714285714,0.3488372093023256,0.7741935483746099,0.8196721311441817,0.8281249999935304,0.7384615384577515,0.8636363636330924,0,0,Cluster 0 (n=20)
730.0,57,1,1,1,0,1,0,1,1,1,1,1,1,1,1,0,1,1,0,46,0.7777777777777778,12.807017543859649,0.3372093023255814,0.7903225806324142,0.8196721311441817,0.8124999999936524,0.784615384611361,0.8484848484816345,0,0,Cluster 0 (n=20)
745.0,58,1,1,1,1,1,0,1,1,1,1,1,1,1,1,0,1,0,1,47,0.8333333333333334,12.844827586206897,0.32558139534883723,0.8064516128902186,0.8196721311441817,0.8437499999934083,0.8153846153804339,0.8636363636330924,0,0,Cluster 0 (n=20)
750.0,59,1,1,1,1,1,1,1,1,1,1,0,1,1,1,0,1,1,0,48,0.8333333333333334,12.711864406779661,0.313953488372093,0.7903225806324142,0.8524590163899489,0.8593749999932863,0.8153846153804339,0.8484848484816345,0,0,Cluster 0 (n=20)
761.0,60,1,1,1,1,1,1,1,1,1,1,1,1,1,0,0,1,0,0,49,0.7777777777777778,12.683333333333334,0.3023255813953488,0.7903225806324142,0.8524590163899489,0.8749999999931641,0.7999999999958974,0.8939393939360079,0,0,Cluster 0 (n=20)
771.0,62,1,1,1,1,1,0,1,1,1,1,1,1,1,1,0,1,1,0,50,0.8333333333333334,12.435483870967742,0.27906976744186046,0.822580645148023,0.8524590163899489,0.8593749999932863,0.8307692307649704,0.9090909090874656,0,0,Cluster 0 (n=20)
788.0,64,1,1,1,1,1,1,1,1,1,1,1,1,1,1,0,1,0,0,51,0.8333333333333334,12.3125,0.2558139534883721,0.8548387096636317,0.8852459016357163,0.8906249999930421,0.846153846149507,0.9090909090874656,0,0,Cluster 0 (n=20)
791.0,66,1,1,1,1,1,0,1,1,1,1,1,1,1,1,0,1,1,1,52,0.8888888888888888,11.984848484848484,0.23255813953488372,0.8548387096636317,0.8688524590128326,0.8906249999930421,0.8615384615340435,0.9242424242389233,0,0,Cluster 0 (n=20)
793.0,67,1,1,1,0,1,1,1,1,1,1,1,1,1,1,0,1,1,0,53,0.8333333333333334,11.835820895522389,0.22093023255813954,0.870967741921436,0.9016393442585999,0.8906249999930421,0.846153846149507,0.9090909090874656,0,0,Cluster 0 (n=20)
808.0,68,1,1,1,1,1,1,1,1,1,1,1,1,1,1,0,1,0,1,54,0.8888888888888888,11.882352941176471,0.20930232558139536,0.8870967741792404,0.9016393442585999,0.921874999992798,0.87692307691858,0.9242424242389233,0,0,Cluster 0 (n=20)
813.0,71,1,1,1,0,1,1,1,1,1,1,1,1,1,1,0,1,1,1,55,0.8888888888888888,11.450704225352112,0.1744186046511628,0.9032258064370448,0.9180327868814835,0.921874999992798,0.87692307691858,0.9242424242389233,0,0,Cluster 0 (n=20)
834.0,72,1,1,1,1,1,1,1,1,1,1,1,1,1,1,0,1,1,0,56,0.8888888888888888,11.583333333333334,0.16279069767441862,0.9032258064370448,0.9344262295043672,0.9374999999926759,0.8923076923031165,0.9696969696932967,0,0,Cluster 0 (n=20)
854.0,76,1,1,1,1,1,1,1,1,1,1,1,1,1,1,0,1,1,1,57,0.9444444444444444,11.236842105263158,0.11627906976744186,0.9354838709526535,0.9508196721272508,0.9687499999924317,0.9230769230721894,0.9848484848447544,0,0,Cluster 0 (n=20)
873.0,82,1,1,1,1,1,1,1,1,1,1,1,1,1,1,1,1,1,0,58,0.9444444444444444,10.646341463414634,0.046511627906976744,0.9677419354682623,0.983606557373018,0.9687499999924317,0.9692307692257989,0.9848484848447544,0,0,Cluster 0 (n=20)
893.0,86,1,1,1,1,1,1,1,1,1,1,1,1,1,1,1,1,1,1,59,1.0,10.383720930232558,0.0,0.999999999983871,0.9999999999959017,0.9999999999921876,0.9999999999948719,0.9999999999962121,0,0,Cluster 0 (n=20)



_________________________________
classic_kmedi_amd_eff_sat.csv
_________________________________


satisfaction,effort,req_1,req_2,req_3,req_4,req_5,req_6,req_7,req_8,req_9,req_10,req_11,req_12,req_13,req_14,req_15,req_16,req_17,req_18,id,scope,productivity,squandering,stcov_c1,stcov_c2,stcov_c3,stcov_c4,stcov_c5,cluster,cluster_str,group_label
745.0,58,1,1,1,1,1,0,1,1,1,1,1,1,1,1,0,1,0,1,47,0.8333333333333334,12.844827586206897,0.32558139534883723,0.8064516128902186,0.8196721311441817,0.8437499999934083,0.8153846153804339,0.8636363636330924,2,2,Cluster 2 (n=13)
750.0,59,1,1,1,1,1,1,1,1,1,1,0,1,1,1,0,1,1,0,48,0.8333333333333334,12.711864406779661,0.313953488372093,0.7903225806324142,0.8524590163899489,0.8593749999932863,0.8153846153804339,0.8484848484816345,2,2,Cluster 2 (n=13)
761.0,60,1,1,1,1,1,1,1,1,1,1,1,1,1,0,0,1,0,0,49,0.7777777777777778,12.683333333333334,0.3023255813953488,0.7903225806324142,0.8524590163899489,0.8749999999931641,0.7999999999958974,0.8939393939360079,2,2,Cluster 2 (n=13)
771.0,62,1,1,1,1,1,0,1,1,1,1,1,1,1,1,0,1,1,0,50,0.8333333333333334,12.435483870967742,0.27906976744186046,0.822580645148023,0.8524590163899489,0.8593749999932863,0.8307692307649704,0.9090909090874656,2,2,Cluster 2 (n=13)
788.0,64,1,1,1,1,1,1,1,1,1,1,1,1,1,1,0,1,0,0,51,0.8333333333333334,12.3125,0.2558139534883721,0.8548387096636317,0.8852459016357163,0.8906249999930421,0.846153846149507,0.9090909090874656,2,2,Cluster 2 (n=13)
791.0,66,1,1,1,1,1,0,1,1,1,1,1,1,1,1,0,1,1,1,52,0.8888888888888888,11.984848484848484,0.23255813953488372,0.8548387096636317,0.8688524590128326,0.8906249999930421,0.8615384615340435,0.9242424242389233,2,2,Cluster 2 (n=13)
793.0,67,1,1,1,0,1,1,1,1,1,1,1,1,1,1,0,1,1,0,53,0.8333333333333334,11.835820895522389,0.22093023255813954,0.870967741921436,0.9016393442585999,0.8906249999930421,0.846153846149507,0.9090909090874656,2,2,Cluster 2 (n=13)
808.0,68,1,1,1,1,1,1,1,1,1,1,1,1,1,1,0,1,0,1,54,0.8888888888888888,11.882352941176471,0.20930232558139536,0.8870967741792404,0.9016393442585999,0.921874999992798,0.87692307691858,0.9242424242389233,2,2,Cluster 2 (n=13)
813.0,71,1,1,1,0,1,1,1,1,1,1,1,1,1,1,0,1,1,1,55,0.8888888888888888,11.450704225352112,0.1744186046511628,0.9032258064370448,0.9180327868814835,0.921874999992798,0.87692307691858,0.9242424242389233,2,2,Cluster 2 (n=13)
834.0,72,1,1,1,1,1,1,1,1,1,1,1,1,1,1,0,1,1,0,56,0.8888888888888888,11.583333333333334,0.16279069767441862,0.9032258064370448,0.9344262295043672,0.9374999999926759,0.8923076923031165,0.9696969696932967,2,2,Cluster 2 (n=13)
854.0,76,1,1,1,1,1,1,1,1,1,1,1,1,1,1,0,1,1,1,57,0.9444444444444444,11.236842105263158,0.11627906976744186,0.9354838709526535,0.9508196721272508,0.9687499999924317,0.9230769230721894,0.9848484848447544,2,2,Cluster 2 (n=13)
873.0,82,1,1,1,1,1,1,1,1,1,1,1,1,1,1,1,1,1,0,58,0.9444444444444444,10.646341463414634,0.046511627906976744,0.9677419354682623,0.983606557373018,0.9687499999924317,0.9692307692257989,0.9848484848447544,2,2,Cluster 2 (n=13)
893.0,86,1,1,1,1,1,1,1,1,1,1,1,1,1,1,1,1,1,1,59,1.0,10.383720930232558,0.0,0.999999999983871,0.9999999999959017,0.9999999999921876,0.9999999999948719,0.9999999999962121,2,2,Cluster 2 (n=13)







_________________________________
classic_kmedi_sil2_all.csv
_________________________________

satisfaction,effort,req_1,req_2,req_3,req_4,req_5,req_6,req_7,req_8,req_9,req_10,req_11,req_12,req_13,req_14,req_15,req_16,req_17,req_18,id,scope,productivity,squandering,stcov_c1,stcov_c2,stcov_c3,stcov_c4,stcov_c5,cluster,cluster_str,group_label
687.0,49,1,1,1,1,1,0,1,1,1,1,0,1,1,1,0,1,1,0,40,0.7777777777777778,14.020408163265307,0.43023255813953487,0.7096774193433923,0.7704918032755308,0.7812499999938965,0.753846153842288,0.7878787878758036,0,0,Cluster 0 (n=20)
698.0,50,1,1,1,1,1,0,1,1,1,1,1,1,1,0,0,1,0,0,41,0.7222222222222222,13.96,0.4186046511627907,0.7096774193433923,0.7704918032755308,0.7968749999937745,0.7384615384577515,0.8333333333301768,0,0,Cluster 0 (n=20)
704.0,51,1,1,1,1,1,1,1,1,1,1,0,1,1,1,0,1,0,0,42,0.7777777777777778,13.803921568627452,0.4069767441860465,0.7419354838590011,0.803278688521298,0.8124999999936524,0.7692307692268245,0.7878787878758036,0,0,Cluster 0 (n=20)
707.0,53,1,1,1,1,1,0,1,1,1,1,0,1,1,1,0,1,1,1,43,0.8333333333333334,13.339622641509434,0.38372093023255816,0.7419354838590011,0.7868852458984145,0.8124999999936524,0.784615384611361,0.8030303030272613,0,0,Cluster 0 (n=20)
725.0,54,1,1,1,1,1,0,1,1,1,1,1,1,1,1,0,1,0,0,44,0.7777777777777778,13.425925925925926,0.37209302325581395,0.7741935483746099,0.803278688521298,0.8124999999936524,0.784615384611361,0.8484848484816345,0,0,Cluster 0 (n=20)
726.0,56,1,1,1,1,1,1,1,1,1,1,1,1,1,0,0,0,0,0,45,0.7222222222222222,12.964285714285714,0.3488372093023256,0.7741935483746099,0.8196721311441817,0.8281249999935304,0.7384615384577515,0.8636363636330924,0,0,Cluster 0 (n=20)
730.0,57,1,1,1,0,1,0,1,1,1,1,1,1,1,1,0,1,1,0,46,0.7777777777777778,12.807017543859649,0.3372093023255814,0.7903225806324142,0.8196721311441817,0.8124999999936524,0.784615384611361,0.8484848484816345,0,0,Cluster 0 (n=20)
745.0,58,1,1,1,1,1,0,1,1,1,1,1,1,1,1,0,1,0,1,47,0.8333333333333334,12.844827586206897,0.32558139534883723,0.8064516128902186,0.8196721311441817,0.8437499999934083,0.8153846153804339,0.8636363636330924,0,0,Cluster 0 (n=20)
750.0,59,1,1,1,1,1,1,1,1,1,1,0,1,1,1,0,1,1,0,48,0.8333333333333334,12.711864406779661,0.313953488372093,0.7903225806324142,0.8524590163899489,0.8593749999932863,0.8153846153804339,0.8484848484816345,0,0,Cluster 0 (n=20)
761.0,60,1,1,1,1,1,1,1,1,1,1,1,1,1,0,0,1,0,0,49,0.7777777777777778,12.683333333333334,0.3023255813953488,0.7903225806324142,0.8524590163899489,0.8749999999931641,0.7999999999958974,0.8939393939360079,0,0,Cluster 0 (n=20)
